500.0
497.0
501.0
499.0
500.0
501.0
503.0
506.0
501.0
502.0
498.0
503.0
499.0
504.0
499.0
503.0
498.0
592.0
709.0
658.0
483.0
493.0
507.0
499.0
497.0
497.0
499.0
500.0
503.0
502.0
507.0
505.0
511.0
509.0
517.0
515.0
523.0
523.0
531.0
530.0
536.0
533.0
531.0
520.0
506.0
496.0
489.0
487.0
483.0
487.0
483.0
488.0
483.0
489.0
484.0
490.0
486.0
491.0
487.0
492.0
489.0
492.0
491.0
492.0
492.0
493.0
494.0
492.0
495.0
492.0
496.0
492.0
497.0
493.0
498.0
493.0
499.0
495.0
499.0
496.0
500.0
498.0
500.0
499.0
499.0
501.0
499.0
502.0
502.0
508.0
501.0
503.0
498.0
504.0
499.0
504.0
500.0
504.0
497.0
567.0
708.0
688.0
507.0
484.0
508.0
499.0
497.0
495.0
499.0
497.0
503.0
500.0
506.0
503.0
510.0
507.0
515.0
513.0
521.0
521.0
528.0
529.0
533.0
534.0
532.0
524.0
509.0
499.0
489.0
488.0
482.0
486.0
481.0
487.0
483.0
488.0
485.0
489.0
486.0
491.0
489.0
492.0
491.0
491.0
492.0
492.0
493.0
491.0
494.0
490.0
495.0
491.0
496.0
491.0
497.0
492.0
498.0
494.0
498.0
496.0
499.0
497.0
499.0
498.0
498.0
500.0
499.0
501.0
498.0
503.0
499.0
503.0
499.0
504.0
500.0
506.0
506.0
508.0
502.0
503.0
502.0
503.0
503.0
503.0
505.0
497.0
539.0
679.0
709.0
549.0
478.0
505.0
505.0
494.0
499.0
495.0
501.0
499.0
504.0
503.0
507.0
508.0
510.0
513.0
514.0
519.0
520.0
528.0
528.0
534.0
531.0
536.0
525.0
517.0
499.0
495.0
484.0
485.0
482.0
485.0
483.0
485.0
486.0
485.0
488.0
485.0
489.0
487.0
491.0
487.0
493.0
489.0
493.0
489.0
494.0
490.0
494.0
492.0
495.0
493.0
494.0
494.0
494.0
496.0
494.0
497.0
494.0
499.0
494.0
500.0
495.0
500.0
497.0
502.0
498.0
502.0
499.0
503.0
501.0
502.0
506.0
505.0
504.0
500.0
503.0
500.0
505.0
500.0
505.0
499.0
509.0
610.0
709.0
634.0
474.0
494.0
508.0
498.0
497.0
498.0
499.0
502.0
501.0
506.0
504.0
510.0
508.0
516.0
513.0
521.0
520.0
528.0
529.0
536.0
535.0
537.0
531.0
521.0
507.0
495.0
488.0
483.0
485.0
481.0
486.0
481.0
487.0
482.0
488.0
484.0
490.0
487.0
491.0
488.0
492.0
491.0
492.0
493.0
492.0
493.0
492.0
494.0
491.0
496.0
492.0
497.0
492.0
498.0
493.0
499.0
494.0
499.0
496.0
500.0
498.0
500.0
500.0
500.0
501.0
499.0
503.0
499.0
504.0
502.0
510.0
503.0
505.0
500.0
505.0
501.0
505.0
502.0
505.0
499.0
561.0
705.0
696.0
518.0
480.0
509.0
500.0
498.0
495.0
501.0
497.0
504.0
501.0
507.0
505.0
511.0
510.0
515.0
515.0
521.0
523.0
528.0
532.0
533.0
535.0
532.0
527.0
510.0
501.0
488.0
488.0
481.0
486.0
481.0
486.0
483.0
487.0
484.0
488.0
487.0
489.0
489.0
489.0
490.0
490.0
493.0
490.0
494.0
490.0
495.0
490.0
495.0
491.0
497.0
492.0
497.0
494.0
496.0
496.0
497.0
497.0
497.0
499.0
497.0
501.0
497.0
501.0
497.0
503.0
498.0
503.0
499.0
506.0
505.0
505.0
501.0
502.0
501.0
502.0
503.0
503.0
502.0
500.0
593.0
709.0
664.0
485.0
493.0
506.0
501.0
494.0
500.0
497.0
501.0
500.0
505.0
504.0
507.0
509.0
511.0
514.0
515.0
521.0
521.0
529.0
529.0
535.0
531.0
534.0
520.0
510.0
495.0
491.0
483.0
485.0
482.0
485.0
484.0
485.0
486.0
485.0
488.0
485.0
490.0
486.0
491.0
487.0
492.0
489.0
493.0
489.0
494.0
491.0
494.0
493.0
494.0
494.0
495.0
495.0
494.0
497.0
494.0
499.0
494.0
499.0
495.0
500.0
496.0
501.0
497.0
501.0
498.0
501.0
500.0
503.0
504.0
506.0
506.0
502.0
503.0
500.0
504.0
500.0
505.0
500.0
501.0
550.0
700.0
700.0
527.0
477.0
510.0
501.0
496.0
497.0
497.0
499.0
500.0
504.0
502.0
508.0
505.0
512.0
510.0
517.0
517.0
525.0
525.0
532.0
532.0
536.0
532.0
527.0
512.0
499.0
492.0
485.0
484.0
481.0
485.0
482.0
486.0
482.0
488.0
484.0
489.0
486.0
490.0
488.0
493.0
489.0
492.0
491.0
493.0
492.0
492.0
494.0
491.0
495.0
491.0
496.0
492.0
497.0
492.0
498.0
494.0
498.0
494.0
498.0
497.0
499.0
498.0
499.0
499.0
499.0
502.0
498.0
503.0
503.0
506.0
500.0
502.0
498.0
504.0
499.0
503.0
501.0
501.0
526.0
666.0
709.0
560.0
468.0
502.0
504.0
494.0
498.0
495.0
501.0
498.0
504.0
501.0
508.0
506.0
513.0
512.0
517.0
519.0
525.0
528.0
531.0
535.0
536.0
536.0
527.0
516.0
499.0
493.0
482.0
485.0
479.0
484.0
480.0
484.0
481.0
487.0
484.0
487.0
486.0
488.0
489.0
489.0
491.0
489.0
492.0
488.0
493.0
489.0
494.0
490.0
495.0
490.0
495.0
492.0
497.0
494.0
497.0
495.0
497.0
497.0
497.0
498.0
497.0
500.0
498.0
501.0
499.0
506.0
500.0
503.0
497.0
503.0
499.0
503.0
500.0
504.0
497.0
533.0
673.0
709.0
556.0
470.0
507.0
501.0
497.0
494.0
500.0
497.0
503.0
500.0
507.0
505.0
511.0
508.0
515.0
515.0
521.0
523.0
528.0
532.0
534.0
537.0
534.0
529.0
512.0
502.0
489.0
489.0
482.0
486.0
482.0
487.0
484.0
488.0
485.0
489.0
488.0
490.0
490.0
490.0
492.0
490.0
494.0
490.0
495.0
491.0
496.0
492.0
497.0
492.0
497.0
493.0
497.0
494.0
498.0
496.0
499.0
498.0
498.0
499.0
498.0
501.0
498.0
502.0
499.0
503.0
498.0
506.0
503.0
507.0
501.0
504.0
500.0
504.0
501.0
504.0
503.0
499.0
538.0
681.0
709.0
547.0
476.0
505.0
505.0
494.0
499.0
495.0
502.0
498.0
504.0
502.0
508.0
507.0
512.0
512.0
517.0
519.0
522.0
528.0
529.0
535.0
533.0
536.0
524.0
515.0
497.0
494.0
484.0
486.0
481.0
486.0
483.0
486.0
485.0
487.0
487.0
488.0
489.0
488.0
491.0
489.0
493.0
489.0
494.0
489.0
495.0
491.0
495.0
491.0
496.0
492.0
496.0
494.0
496.0
495.0
497.0
497.0
496.0
499.0
497.0
500.0
497.0
501.0
497.0
503.0
498.0
503.0
498.0
504.0
499.0
504.0
503.0
508.0
504.0
503.0
502.0
503.0
503.0
503.0
506.0
500.0
507.0
603.0
709.0
645.0
483.0
492.0
509.0
496.0
498.0
496.0
500.0
498.0
502.0
503.0
504.0
507.0
508.0
512.0
511.0
518.0
518.0
526.0
525.0
534.0
531.0
537.0
529.0
523.0
506.0
497.0
487.0
486.0
484.0
484.0
484.0
484.0
487.0
484.0
488.0
485.0
490.0
486.0
491.0
486.0
493.0
488.0
493.0
489.0
493.0
491.0
494.0
492.0
493.0
494.0
494.0
496.0
494.0
496.0
494.0
498.0
495.0
499.0
494.0
500.0
495.0
501.0
496.0
501.0
498.0
501.0
500.0
502.0
501.0
501.0
505.0
505.0
506.0
500.0
502.0
499.0
504.0
499.0
505.0
501.0
503.0
562.0
709.0
687.0
505.0
481.0
509.0
500.0
495.0
498.0
496.0
501.0
500.0
505.0
502.0
509.0
506.0
514.0
512.0
519.0
519.0
526.0
527.0
534.0
535.0
537.0
535.0
524.0
511.0
495.0
490.0
481.0
485.0
480.0
485.0
480.0
486.0
481.0
487.0
484.0
488.0
486.0
489.0
488.0
491.0
490.0
490.0
492.0
490.0
493.0
490.0
494.0
490.0
495.0
490.0
496.0
491.0
497.0
493.0
497.0
496.0
498.0
496.0
498.0
498.0
498.0
500.0
498.0
501.0
498.0
503.0
498.0
504.0
502.0
507.0
501.0
503.0
499.0
503.0
500.0
503.0
502.0
500.0
510.0
626.0
709.0
615.0
473.0
497.0
508.0
494.0
499.0
495.0
501.0
497.0
504.0
502.0
507.0
506.0
511.0
511.0
515.0
519.0
521.0
526.0
529.0
535.0
533.0
537.0
528.0
521.0
502.0
496.0
485.0
486.0
482.0
485.0
483.0
486.0
485.0
487.0
487.0
487.0
489.0
487.0
490.0
488.0
493.0
489.0
494.0
489.0
495.0
490.0
496.0
491.0
496.0
493.0
496.0
494.0
496.0
497.0
496.0
498.0
496.0
499.0
496.0
501.0
496.0
501.0
497.0
503.0
498.0
502.0
500.0
503.0
501.0
506.0
507.0
506.0
503.0
501.0
503.0
502.0
504.0
501.0
504.0
497.0
567.0
706.0
693.0
511.0
486.0
506.0
503.0
495.0
499.0
497.0
500.0
501.0
503.0
505.0
506.0
509.0
509.0
515.0
514.0
522.0
521.0
530.0
529.0
537.0
533.0
536.0
524.0
514.0
498.0
492.0
486.0
485.0
484.0
483.0
485.0
484.0
487.0
484.0
489.0
486.0
490.0
486.0
492.0
487.0
493.0
489.0
494.0
491.0
494.0
492.0
494.0
493.0
494.0
495.0
494.0
497.0
494.0
498.0
494.0
499.0
494.0
500.0
495.0
501.0
496.0
501.0
498.0
501.0
499.0
502.0
501.0
503.0
506.0
504.0
502.0
500.0
503.0
500.0
504.0
500.0
505.0
496.0
527.0
659.0
709.0
572.0
474.0
504.0
504.0
495.0
497.0
497.0
498.0
500.0
500.0
504.0
502.0
509.0
507.0
514.0
512.0
520.0
519.0
528.0
528.0
535.0
535.0
536.0
527.0
516.0
501.0
491.0
487.0
481.0
483.0
480.0
485.0
481.0
486.0
481.0
487.0
484.0
490.0
485.0
490.0
487.0
491.0
489.0
491.0
490.0
492.0
492.0
491.0
493.0
491.0
494.0
491.0
495.0
491.0
496.0
492.0
498.0
493.0
498.0
495.0
499.0
496.0
499.0
497.0
499.0
500.0
500.0
501.0
501.0
506.0
499.0
502.0
497.0
504.0
498.0
503.0
499.0
504.0
498.0
582.0
709.0
670.0
487.0
486.0
507.0
498.0
496.0
496.0
499.0
498.0
503.0
500.0
507.0
504.0
511.0
510.0
517.0
516.0
524.0
525.0
533.0
533.0
538.0
538.0
535.0
524.0
507.0
496.0
486.0
485.0
480.0
484.0
479.0
485.0
481.0
486.0
482.0
487.0
485.0
489.0
487.0
490.0
490.0
491.0
492.0
491.0
493.0
490.0
494.0
491.0
495.0
491.0
496.0
491.0
497.0
493.0
498.0
494.0
498.0
496.0
499.0
497.0
499.0
499.0
499.0
500.0
499.0
502.0
502.0
508.0
500.0
503.0
498.0
504.0
499.0
505.0
500.0
504.0
498.0
555.0
700.0
702.0
526.0
478.0
509.0
502.0
498.0
496.0
501.0
499.0
504.0
501.0
508.0
504.0
511.0
510.0
516.0
515.0
522.0
524.0
530.0
533.0
536.0
538.0
535.0
527.0
509.0
501.0
489.0
488.0
482.0
486.0
482.0
487.0
484.0
488.0
485.0
489.0
488.0
490.0
489.0
490.0
491.0
491.0
493.0
491.0
495.0
491.0
495.0
491.0
497.0
492.0
497.0
493.0
498.0
494.0
498.0
496.0
498.0
497.0
498.0
499.0
498.0
500.0
498.0
501.0
497.0
503.0
499.0
504.0
500.0
508.0
503.0
504.0
500.0
504.0
501.0
504.0
503.0
504.0
499.0
525.0
663.0
709.0
581.0
471.0
507.0
502.0
499.0
494.0
500.0
497.0
502.0
500.0
506.0
505.0
509.0
509.0
513.0
515.0
518.0
523.0
526.0
532.0
532.0
537.0
533.0
531.0
513.0
505.0
490.0
489.0
483.0
485.0
482.0
485.0
483.0
487.0
486.0
487.0
487.0
488.0
490.0
488.0
491.0
489.0
493.0
489.0
494.0
490.0
495.0
491.0
495.0
492.0
496.0
493.0
496.0
494.0
496.0
496.0
497.0
497.0
495.0
499.0
496.0
500.0
497.0
501.0
497.0
502.0
498.0
503.0
499.0
504.0
504.0
507.0
504.0
502.0
501.0
502.0
503.0
501.0
504.0
498.0
514.0
628.0
709.0
616.0
475.0
496.0
507.0
495.0
498.0
495.0
499.0
498.0
502.0
503.0
504.0
507.0
508.0
512.0
512.0
519.0
519.0
528.0
527.0
535.0
533.0
538.0
529.0
520.0
502.0
494.0
485.0
483.0
481.0
482.0
483.0
483.0
485.0
482.0
487.0
484.0
488.0
485.0
490.0
486.0
492.0
488.0
492.0
489.0
492.0
490.0
492.0
492.0
492.0
493.0
492.0
494.0
492.0
496.0
492.0
497.0
493.0
497.0
493.0
498.0
494.0
499.0
495.0
501.0
498.0
501.0
500.0
504.0
503.0
500.0
500.0
498.0
501.0
498.0
503.0
499.0
501.0
506.0
630.0
709.0
612.0
465.0
499.0
503.0
498.0
496.0
499.0
499.0
501.0
503.0
502.0
507.0
506.0
512.0
511.0
518.0
517.0
525.0
525.0
534.0
533.0
539.0
535.0
534.0
518.0
505.0
494.0
487.0
485.0
483.0
484.0
482.0
486.0
482.0
487.0
484.0
489.0
486.0
491.0
487.0
492.0
489.0
493.0
491.0
493.0
492.0
494.0
493.0
494.0
494.0
493.0
496.0
493.0
497.0
493.0
498.0
494.0
499.0
495.0
500.0
496.0
500.0
498.0
501.0
499.0
501.0
502.0
506.0
506.0
502.0
502.0
500.0
504.0
500.0
504.0
501.0
502.0
506.0
625.0
709.0
629.0
474.0
501.0
507.0
499.0
496.0
499.0
499.0
500.0
503.0
502.0
507.0
506.0
512.0
510.0
518.0
515.0
524.0
523.0
532.0
531.0
537.0
535.0
533.0
519.0
506.0
495.0
488.0
486.0
483.0
486.0
483.0
487.0
484.0
489.0
484.0
490.0
486.0
491.0
488.0
492.0
489.0
494.0
492.0
494.0
493.0
494.0
494.0
494.0
496.0
493.0
497.0
494.0
498.0
494.0
499.0
495.0
500.0
496.0
501.0
498.0
502.0
499.0
501.0
500.0
501.0
501.0
501.0
503.0
502.0
508.0
505.0
506.0
500.0
504.0
500.0
505.0
500.0
505.0
499.0
507.0
609.0
709.0
644.0
481.0
496.0
507.0
498.0
495.0
499.0
497.0
502.0
499.0
504.0
501.0
508.0
506.0
513.0
511.0
519.0
518.0
526.0
528.0
533.0
535.0
535.0
532.0
520.0
508.0
494.0
489.0
483.0
485.0
480.0
485.0
482.0
487.0
483.0
488.0
485.0
489.0
487.0
490.0
489.0
490.0
490.0
490.0
492.0
490.0
493.0
490.0
494.0
490.0
495.0
490.0
495.0
492.0
496.0
493.0
497.0
495.0
498.0
496.0
497.0
497.0
497.0
499.0
497.0
501.0
497.0
502.0
498.0
502.0
499.0
507.0
503.0
504.0
498.0
502.0
500.0
503.0
501.0
503.0
498.0
533.0
679.0
709.0
550.0
468.0
508.0
499.0
498.0
494.0
500.0
496.0
503.0
501.0
506.0
505.0
510.0
509.0
515.0
516.0
520.0
524.0
527.0
533.0
533.0
538.0
533.0
531.0
513.0
504.0
488.0
487.0
480.0
484.0
481.0
485.0
482.0
485.0
485.0
486.0
486.0
486.0
488.0
487.0
490.0
488.0
492.0
488.0
492.0
488.0
493.0
489.0
495.0
490.0
495.0
492.0
496.0
493.0
496.0
495.0
495.0
497.0
496.0
498.0
495.0
499.0
496.0
500.0
496.0
502.0
497.0
503.0
501.0
507.0
501.0
502.0
499.0
502.0
501.0
502.0
503.0
500.0
504.0
598.0
709.0
652.0
483.0
490.0
510.0
495.0
499.0
495.0
501.0
498.0
504.0
502.0
506.0
507.0
510.0
512.0
514.0
517.0
520.0
526.0
528.0
534.0
533.0
538.0
530.0
525.0
506.0
500.0
487.0
488.0
483.0
486.0
484.0
486.0
486.0
487.0
488.0
487.0
489.0
488.0
491.0
487.0
493.0
489.0
494.0
490.0
495.0
491.0
495.0
492.0
495.0
493.0
496.0
495.0
496.0
496.0
496.0
498.0
496.0
500.0
496.0
500.0
497.0
502.0
497.0
502.0
498.0
503.0
499.0
505.0
505.0
507.0
503.0
501.0
502.0
502.0
504.0
502.0
506.0
497.0
519.0
642.0
709.0
598.0
476.0
503.0
508.0
496.0
498.0
498.0
500.0
501.0
502.0
505.0
504.0
510.0
508.0
515.0
513.0
520.0
521.0
524.0
526.0
530.0
532.0
535.0
529.0
520.0
504.0
489.0
487.0
482.0
485.0
481.0
488.0
481.0
486.0
482.0
486.0
487.0
488.0
488.0
490.0
492.0
488.0
488.0
492.0
494.0
488.0
494.0
491.0
496.0
490.0
495.0
494.0
499.0
494.0
496.0
495.0
500.0
498.0
498.0
501.0
499.0
499.0
499.0
502.0
501.0
507.0
497.0
506.0
501.0
508.0
503.0
503.0
502.0
502.0
501.0
504.0
501.0
500.0
506.0
629.0
709.0
626.0
473.0
493.0
506.0
498.0
494.0
492.0
501.0
499.0
496.0
499.0
507.0
503.0
506.0
510.0
511.0
515.0
515.0
523.0
526.0
529.0
530.0
536.0
519.0
513.0
498.0
489.0
478.0
482.0
471.0
479.0
475.0
479.0
474.0
479.0
480.0
480.0
481.0
481.0
484.0
482.0
485.0
482.0
488.0
485.0
488.0
487.0
488.0
483.0
488.0
487.0
489.0
492.0
493.0
489.0
489.0
490.0
494.0
495.0
494.0
496.0
489.0
497.0
495.0
498.0
500.0
503.0
494.0
497.0
494.0
499.0
497.0
500.0
496.0
494.0
513.0
640.0
709.0
595.0
467.0
489.0
504.0
491.0
495.0
497.0
501.0
494.0
497.0
498.0
505.0
511.0
512.0
504.0
512.0
518.0
525.0
531.0
523.0
537.0
534.0
536.0
532.0
513.0
496.0
493.0
483.0
486.0
479.0
487.0
480.0
479.0
486.0
483.0
487.0
486.0
487.0
489.0
489.0
486.0
495.0
488.0
495.0
490.0
495.0
492.0
493.0
495.0
493.0
494.0
499.0
493.0
495.0
497.0
499.0
495.0
494.0
500.0
498.0
502.0
495.0
498.0
500.0
506.0
503.0
502.0
500.0
500.0
501.0
503.0
505.0
502.0
501.0
596.0
709.0
659.0
484.0
493.0
508.0
494.0
498.0
496.0
505.0
495.0
503.0
501.0
504.0
508.0
512.0
513.0
513.0
517.0
519.0
526.0
531.0
533.0
535.0
536.0
530.0
520.0
502.0
496.0
488.0
